# #nu(Hz) #T #rho #c #s
0.000000e+00 1.000000e+00 0.000000e+00 1.000000e+00 0.000000e+00
1.000000e+09 9.755061e-01 -3.587402e-03 9.751847e-01 2.478239e-02
2.000000e+09 9.098389e-01 -1.223424e-02 9.087463e-01 4.286522e-02
3.000000e+09 8.209274e-01 -2.165984e-02 8.190031e-01 5.183119e-02
4.000000e+09 7.265673e-01 -2.873643e-02 7.240325e-01 5.339555e-02
5.000000e+09 6.385084e-01 -3.254716e-02 6.356622e-01 5.066726e-02
6.000000e+09 5.622030e-01 -3.357392e-02 5.592949e-01 4.619755e-02
7.000000e+09 4.989526e-01 -3.270265e-02 4.961466e-01 4.150639e-02
8.000000e+09 4.479938e-01 -3.070855e-02 4.453792e-01 3.731955e-02
9.000000e+09 4.078167e-01 -2.811998e-02 4.054307e-01 3.390735e-02
1.000000e+10 3.768340e-01 -2.524357e-02 3.746804e-01 3.132497e-02
1.100000e+10 3.536626e-01 -2.222591e-02 3.517245e-01 2.954807e-02
1.200000e+10 3.372145e-01 -1.910623e-02 3.354608e-01 2.854146e-02
1.300000e+10 3.267060e-01 -1.585071e-02 3.250924e-01 2.829325e-02
1.400000e+10 3.216411e-01 -1.237047e-02 3.201071e-01 2.883440e-02
1.500000e+10 3.217927e-01 -8.527261e-03 3.202537e-01 3.025533e-02
1.600000e+10 3.271937e-01 -4.130073e-03 3.255267e-01 3.272682e-02
1.700000e+10 3.381411e-01 1.075024e-03 3.361602e-01 3.653180e-02
1.800000e+10 3.552117e-01 7.419068e-03 3.526282e-01 4.211470e-02
1.900000e+10 3.792839e-01 1.532278e-02 3.756404e-01 5.015762e-02
2.000000e+10 4.115485e-01 2.529336e-02 4.061114e-01 6.169259e-02
2.100000e+10 4.534651e-01 3.787195e-02 4.450536e-01 7.825350e-02
2.200000e+10 5.065725e-01 5.345879e-02 4.933006e-01 1.020411e-01
2.300000e+10 5.719813e-01 7.188255e-02 5.509119e-01 1.359839e-01
2.400000e+10 6.493014e-01 9.154211e-02 6.161072e-01 1.833692e-01
2.500000e+10 7.348963e-01 1.081342e-01 6.838570e-01 2.464126e-01
2.600000e+10 8.201368e-01 1.137997e-01 7.451337e-01 3.231870e-01
2.700000e+10 8.917858e-01 9.889824e-02 7.888829e-01 4.039366e-01
2.800000e+10 9.365496e-01 5.810961e-02 8.074035e-01 4.710074e-01
2.900000e+10 9.473039e-01 -2.876770e-03 8.006979e-01 5.062206e-01
3.000000e+10 9.249618e-01 -6.810674e-02 7.743720e-01 5.012622e-01
3.100000e+10 8.755615e-01 -1.205139e-01 7.342054e-01 4.615482e-01
3.200000e+10 8.075290e-01 -1.508392e-01 6.843276e-01 4.013059e-01
3.300000e+10 7.303153e-01 -1.595088e-01 6.287291e-01 3.355846e-01
3.400000e+10 6.526866e-01 -1.526681e-01 5.719478e-01 2.748964e-01
3.500000e+10 5.809976e-01 -1.373455e-01 5.181278e-01 2.241382e-01
3.600000e+10 5.186522e-01 -1.188193e-01 4.700683e-01 1.841680e-01
3.700000e+10 4.667045e-01 -1.001665e-01 4.290856e-01 1.538354e-01
3.800000e+10 4.248178e-01 -8.280001e-02 3.954141e-01 1.313849e-01
3.900000e+10 3.920500e-01 -6.713353e-02 3.686963e-01 1.151491e-01
4.000000e+10 3.673356e-01 -5.306197e-02 3.483482e-01 1.037950e-01
4.100000e+10 3.497309e-01 -4.023993e-02 3.337769e-01 9.636084e-02
4.200000e+10 3.385186e-01 -2.821857e-02 3.244900e-01 9.222136e-02
4.300000e+10 3.332457e-01 -1.649951e-02 3.201426e-01 9.104507e-02
4.400000e+10 3.337348e-01 -4.543507e-03 3.205500e-01 9.276870e-02
4.500000e+10 3.400915e-01 8.244017e-03 3.256819e-01 9.759902e-02
4.600000e+10 3.527144e-01 2.253690e-02 3.356390e-01 1.060473e-01
4.700000e+10 3.723046e-01 3.910766e-02 3.506000e-01 1.189999e-01
4.800000e+10 3.998520e-01 5.881691e-02 3.707108e-01 1.378247e-01
4.900000e+10 4.365458e-01 8.251883e-02 3.958602e-01 1.644917e-01
5.000000e+10 4.834987e-01 1.107730e-01 4.252584e-01 2.016323e-01
5.100000e+10 5.410954e-01 1.431804e-01 4.567447e-01 2.523250e-01
5.200000e+10 6.077738e-01 1.771616e-01 4.859242e-01 3.191871e-01
5.300000e+10 6.784170e-01 2.063844e-01 5.058035e-01 4.022660e-01
5.400000e+10 7.436809e-01 2.202153e-01 5.084651e-01 4.960138e-01
5.500000e+10 7.927022e-01 2.067348e-01 4.899163e-01 5.878941e-01
5.600000e+10 8.193752e-01 1.596478e-01 4.553012e-01 6.622606e-01
5.700000e+10 8.264520e-01 8.349368e-02 4.180491e-01 7.080160e-01
5.800000e+10 8.219539e-01 -8.399550e-03 3.920162e-01 7.223995e-01
5.900000e+10 8.116853e-01 -1.001011e-01 3.840054e-01 7.080626e-01
6.000000e+10 7.954350e-01 -1.774950e-01 3.918943e-01 6.690524e-01
6.100000e+10 7.690271e-01 -2.305404e-01 4.073371e-01 6.101887e-01
6.200000e+10 7.293029e-01 -2.552109e-01 4.205792e-01 5.383896e-01
6.300000e+10 6.776420e-01 -2.542633e-01 4.250548e-01 4.624686e-01
6.400000e+10 6.194982e-01 -2.351726e-01 4.193118e-01 3.907039e-01
6.500000e+10 5.613590e-01 -2.063599e-01 4.057458e-01 3.284964e-01
6.600000e+10 5.081925e-01 -1.743786e-01 3.880995e-01 2.779037e-01
6.700000e+10 4.627014e-01 -1.431138e-01 3.696835e-01 2.386319e-01
6.800000e+10 4.257961e-01 -1.142759e-01 3.527609e-01 2.092919e-01
6.900000e+10 3.973682e-01 -8.821000e-02 3.386340e-01 1.882751e-01
7.000000e+10 3.769051e-01 -6.453581e-02 3.279473e-01 1.741930e-01
7.100000e+10 3.638642e-01 -4.253053e-02 3.209649e-01 1.660416e-01
7.200000e+10 3.578698e-01 -2.131489e-02 3.177568e-01 1.632394e-01
7.300000e+10 3.588101e-01 7.888135e-05 3.182952e-01 1.656287e-01
7.400000e+10 3.668813e-01 2.269781e-02 3.224740e-01 1.734854e-01
7.500000e+10 3.825968e-01 4.767291e-02 3.300504e-01 1.875483e-01
7.600000e+10 4.067447e-01 7.618785e-02 3.404854e-01 2.090607e-01
7.700000e+10 4.402249e-01 1.093294e-01 3.526416e-01 2.397686e-01
7.800000e+10 4.836283e-01 1.476742e-01 3.642931e-01 2.817433e-01
7.900000e+10 5.363523e-01 1.904028e-01 3.715066e-01 3.367542e-01
8.000000e+10 5.951539e-01 2.338455e-01 3.682942e-01 4.048256e-01
8.100000e+10 6.527292e-01 2.700478e-01 3.475892e-01 4.819869e-01
8.200000e+10 6.983039e-01 2.873502e-01 3.047666e-01 5.587267e-01
8.300000e+10 7.223923e-01 2.751572e-01 2.426409e-01 6.223059e-01
8.400000e+10 7.234898e-01 2.306937e-01 1.728544e-01 6.635807e-01
8.500000e+10 7.096466e-01 1.607676e-01 1.103565e-01 6.823295e-01
8.600000e+10 6.928022e-01 7.653138e-02 6.616041e-02 6.853763e-01
8.700000e+10 6.821238e-01 -1.235561e-02 4.496114e-02 6.805283e-01
8.800000e+10 6.811443e-01 -9.926462e-02 4.698210e-02 6.722327e-01
8.900000e+10 6.878816e-01 -1.788999e-01 7.002805e-02 6.605089e-01
9.000000e+10 6.960549e-01 -2.453490e-01 1.098854e-01 6.420448e-01
9.100000e+10 6.972505e-01 -2.919876e-01 1.598074e-01 6.126688e-01
9.200000e+10 6.844278e-01 -3.138128e-01 2.109514e-01 5.704931e-01
9.300000e+10 6.554436e-01 -3.104809e-01 2.548252e-01 5.179499e-01
9.400000e+10 6.138920e-01 -2.869980e-01 2.863359e-01 4.609851e-01
9.500000e+10 5.665871e-01 -2.511920e-01 3.049026e-01 4.061502e-01
9.600000e+10 5.201500e-01 -2.103308e-01 3.131229e-01 3.581496e-01
9.700000e+10 4.791235e-01 -1.692699e-01 3.146548e-01 3.192168e-01
9.800000e+10 4.458571e-01 -1.303571e-01 3.127772e-01 2.897689e-01
9.900000e+10 4.212158e-01 -9.414038e-02 3.098702e-01 2.693340e-01
1.000000e+11 4.053395e-01 -6.010870e-02 3.074320e-01 2.572405e-01
1.010000e+11 3.981777e-01 -2.719293e-02 3.062568e-01 2.530075e-01
1.020000e+11 3.997928e-01 5.961520e-03 3.065780e-01 2.565321e-01
1.030000e+11 4.104911e-01 4.085221e-02 3.080956e-01 2.681624e-01
1.040000e+11 4.307996e-01 7.899053e-02 3.098567e-01 2.886825e-01
1.050000e+11 4.612339e-01 1.216419e-01 3.099696e-01 3.191532e-01
1.060000e+11 5.017032e-01 1.692362e-01 3.051972e-01 3.604441e-01
1.070000e+11 5.503662e-01 2.202367e-01 2.906730e-01 4.121989e-01
1.080000e+11 6.020404e-01 2.695611e-01 2.604353e-01 4.711294e-01
1.090000e+11 6.473140e-01 3.076969e-01 2.098309e-01 5.294422e-01
1.100000e+11 6.748003e-01 3.229523e-01 1.397540e-01 5.757831e-01
1.110000e+11 6.774259e-01 3.077325e-01 5.927910e-02 6.005769e-01
1.120000e+11 6.578306e-01 2.639269e-01 -1.781076e-02 6.023010e-01
1.130000e+11 6.266055e-01 2.011417e-01 -8.046095e-02 5.879647e-01
1.140000e+11 5.955390e-01 1.299736e-01 -1.243381e-01 5.677267e-01
1.150000e+11 5.728513e-01 5.735059e-02 -1.502458e-01 5.498143e-01
1.160000e+11 5.625141e-01 -1.387429e-02 -1.607062e-01 5.388906e-01
1.170000e+11 5.653985e-01 -8.319789e-02 -1.576751e-01 5.365558e-01
1.180000e+11 5.802018e-01 -1.505035e-01 -1.417880e-01 5.421061e-01
1.190000e+11 6.035749e-01 -2.144322e-01 -1.126793e-01 5.528335e-01
1.200000e+11 6.298278e-01 -2.712627e-01 -7.010131e-02 5.640793e-01
1.210000e+11 6.511916e-01 -3.148659e-01 -1.559362e-02 5.697954e-01
1.220000e+11 6.597293e-01 -3.385432e-01 4.616399e-02 5.643582e-01
1.230000e+11 6.507276e-01 -3.384324e-01 1.077838e-01 5.452455e-01
1.240000e+11 6.251953e-01 -3.160419e-01 1.618402e-01 5.145818e-01
1.250000e+11 5.890745e-01 -2.774901e-01 2.038576e-01 4.779646e-01
1.260000e+11 5.499519e-01 -2.302274e-01 2.332384e-01 4.416360e-01
1.270000e+11 5.141469e-01 -1.801157e-01 2.520330e-01 4.103471e-01
1.280000e+11 4.856943e-01 -1.303855e-01 2.631384e-01 3.868550e-01
1.290000e+11 4.667314e-01 -8.198633e-02 2.690691e-01 3.724490e-01
1.300000e+11 4.582968e-01 -3.436698e-02 2.714171e-01 3.676787e-01
1.310000e+11 4.609644e-01 1.383572e-02 2.706762e-01 3.728688e-01
1.320000e+11 4.751223e-01 6.425253e-02 2.661362e-01 3.883096e-01
1.330000e+11 5.008164e-01 1.181994e-01 2.557204e-01 4.140689e-01
1.340000e+11 5.370366e-01 1.757759e-01 2.358650e-01 4.493093e-01
1.350000e+11 5.803669e-01 2.344503e-01 2.018792e-01 4.910230e-01
1.360000e+11 6.234750e-01 2.875403e-01 1.496120e-01 5.325954e-01
1.370000e+11 6.552477e-01 3.243592e-01 7.888282e-02 5.638423e-01
1.380000e+11 6.649475e-01 3.343854e-01 -3.255472e-03 5.747443e-01
1.390000e+11 6.490420e-01 3.141004e-01 -8.387964e-02 5.617479e-01
1.400000e+11 6.139303e-01 2.697159e-01 -1.510151e-01 5.304321e-01
1.410000e+11 5.712204e-01 2.124436e-01 -1.994287e-01 4.913132e-01
1.420000e+11 5.311654e-01 1.519188e-01 -2.304510e-01 4.538169e-01
1.430000e+11 4.998625e-01 9.338688e-02 -2.483625e-01 4.236243e-01
1.440000e+11 4.798873e-01 3.834333e-02 -2.574077e-01 4.031909e-01
1.450000e+11 4.718579e-01 -1.384879e-02 -2.605330e-01 3.931675e-01
1.460000e+11 4.755656e-01 -6.466353e-02 -2.591727e-01 3.934600e-01
1.470000e+11 4.904340e-01 -1.155681e-01 -2.533703e-01 4.036992e-01
1.480000e+11 5.154195e-01 -1.673652e-01 -2.419360e-01 4.232176e-01
1.490000e+11 5.484733e-01 -2.194747e-01 -2.226677e-01 4.506361e-01
1.500000e+11 5.857613e-01 -2.691302e-01 -1.928898e-01 4.831964e-01
1.510000e+11 6.211688e-01 -3.109128e-01 -1.506258e-01 5.162324e-01
1.520000e+11 6.470610e-01 -3.375454e-01 -9.634893e-02 5.435697e-01
1.530000e+11 6.569600e-01 -3.425915e-01 -3.428797e-02 5.595103e-01
1.540000e+11 6.489483e-01 -3.238616e-01 2.830256e-02 5.616462e-01
1.550000e+11 6.269330e-01 -2.846600e-01 8.403335e-02 5.522247e-01
1.560000e+11 5.985098e-01 -2.316173e-01 1.281915e-01 5.367815e-01
1.570000e+11 5.715189e-01 -1.712129e-01 1.593799e-01 5.214576e-01
1.580000e+11 5.518941e-01 -1.076266e-01 1.782494e-01 5.111074e-01
1.590000e+11 5.432954e-01 -4.249360e-02 1.858016e-01 5.087651e-01
1.600000e+11 5.475466e-01 2.422965e-02 1.821703e-01 5.157850e-01
1.610000e+11 5.648756e-01 9.296382e-02 1.660411e-01 5.318576e-01
1.620000e+11 5.934137e-01 1.628978e-01 1.347569e-01 5.544770e-01
1.630000e+11 6.279544e-01 2.301145e-01 8.550385e-02 5.779819e-01
1.640000e+11 6.589957e-01 2.863271e-01 1.805841e-02 5.932673e-01
1.650000e+11 6.744727e-01 3.204869e-01 -6.180621e-02 5.902386e-01
1.660000e+11 6.656441e-01 3.246361e-01 -1.418978e-01 5.635233e-01
1.670000e+11 6.330780e-01 2.998951e-01 -2.090356e-01 5.168702e-01
1.680000e+11 5.859849e-01 2.558091e-01 -2.561256e-01 4.608033e-01
1.690000e+11 5.357237e-01 2.038656e-01 -2.839058e-01 4.060002e-01
1.700000e+11 4.905205e-01 1.522188e-01 -2.974850e-01 3.590855e-01
1.710000e+11 4.544363e-01 1.046541e-01 -3.024999e-01 3.225735e-01
1.720000e+11 4.286851e-01 6.189567e-02 -3.032936e-01 2.965684e-01
1.730000e+11 4.131451e-01 2.310456e-02 -3.026571e-01 2.802744e-01
1.740000e+11 4.073203e-01 -1.316732e-02 -3.021453e-01 2.728455e-01
1.750000e+11 4.107947e-01 -4.850233e-02 -3.024249e-01 2.737499e-01
1.760000e+11 4.233664e-01 -8.439181e-02 -3.034791e-01 2.828738e-01
1.770000e+11 4.449731e-01 -1.220677e-01 -3.046500e-01 3.004811e-01
1.780000e+11 4.754261e-01 -1.622446e-01 -3.045491e-01 3.270420e-01
1.790000e+11 5.139108e-01 -2.046545e-01 -3.009141e-01 3.628658e-01
1.800000e+11 5.582469e-01 -2.473370e-01 -2.905964e-01 4.074527e-01
1.810000e+11 6.041327e-01 -2.858981e-01 -2.700288e-01 4.586099e-01
1.820000e+11 6.450776e-01 -3.134355e-01 -2.365556e-01 5.117858e-01
1.830000e+11 6.740046e-01 -3.221182e-01 -1.904653e-01 5.605756e-01
1.840000e+11 6.865526e-01 -3.064529e-01 -1.363950e-01 5.990304e-01
1.850000e+11 6.839204e-01 -2.661039e-01 -8.240508e-02 6.246161e-01
1.860000e+11 6.725812e-01 -2.056465e-01 -3.699901e-02 6.393012e-01
1.870000e+11 6.610745e-01 -1.315833e-01 -6.576094e-03 6.478133e-01
1.880000e+11 6.565646e-01 -4.955289e-02 4.989686e-03 6.546729e-01
1.890000e+11 6.628048e-01 3.623776e-02 -4.601397e-03 6.617974e-01
1.900000e+11 6.790653e-01 1.214715e-01 -3.660192e-02 6.671091e-01
1.910000e+11 6.993405e-01 1.993781e-01 -9.005012e-02 6.642412e-01
1.920000e+11 7.127952e-01 2.597914e-01 -1.591040e-01 6.444155e-01
1.930000e+11 7.077509e-01 2.922447e-01 -2.316478e-01 6.015345e-01
1.940000e+11 6.787159e-01 2.925278e-01 -2.930505e-01 5.377771e-01
1.950000e+11 6.301992e-01 2.662880e-01 -3.337127e-01 4.635488e-01
1.960000e+11 5.728778e-01 2.251201e-01 -3.529672e-01 3.910551e-01
1.970000e+11 5.168327e-01 1.797880e-01 -3.563091e-01 3.283842e-01
1.980000e+11 4.681140e-01 1.367990e-01 -3.505703e-01 2.784192e-01
1.990000e+11 4.290464e-01 9.872290e-02 -3.411563e-01 2.407217e-01
2.000000e+11 3.997974e-01 6.576992e-02 -3.315195e-01 2.135583e-01
2.010000e+11 3.796707e-01 3.708498e-02 -3.236024e-01 1.950796e-01
2.020000e+11 3.678296e-01 1.146564e-02 -3.184078e-01 1.838033e-01
2.030000e+11 3.636218e-01 -1.232613e-02 -3.164174e-01 1.787427e-01
2.040000e+11 3.666940e-01 -3.546167e-02 -3.178385e-01 1.794035e-01
2.050000e+11 3.770096e-01 -5.902683e-02 -3.227178e-01 1.857559e-01
2.060000e+11 3.948143e-01 -8.401267e-02 -3.309555e-01 1.982138e-01
2.070000e+11 4.205470e-01 -1.112611e-01 -3.422310e-01 2.176205e-01
2.080000e+11 4.546549e-01 -1.413047e-01 -3.558365e-01 2.452030e-01
2.090000e+11 4.972444e-01 -1.740215e-01 -3.704191e-01 2.824150e-01
2.100000e+11 5.474953e-01 -2.080364e-01 -3.836932e-01 3.305320e-01
2.110000e+11 6.028908e-01 -2.399203e-01 -3.923415e-01 3.898508e-01
2.120000e+11 6.586602e-01 -2.635982e-01 -3.925558e-01 4.585293e-01
2.130000e+11 7.083181e-01 -2.708821e-01 -3.816894e-01 5.316490e-01
2.140000e+11 7.460477e-01 -2.539522e-01 -3.607129e-01 6.016491e-01
2.150000e+11 7.699807e-01 -2.090061e-01 -3.357212e-01 6.606648e-01
2.160000e+11 7.834391e-01 -1.384486e-01 -3.165657e-01 7.031323e-01
2.170000e+11 7.922310e-01 -5.013227e-02 -3.129873e-01 7.260549e-01
2.180000e+11 7.996706e-01 4.459487e-02 -3.304584e-01 7.268298e-01
2.190000e+11 8.028700e-01 1.320247e-01 -3.671106e-01 7.017118e-01
2.200000e+11 7.933369e-01 1.977426e-01 -4.126913e-01 6.480488e-01
2.210000e+11 7.629263e-01 2.314238e-01 -4.519377e-01 5.694312e-01
2.220000e+11 7.110517e-01 2.324740e-01 -4.726339e-01 4.776689e-01
2.230000e+11 6.457382e-01 2.099011e-01 -4.719365e-01 3.875503e-01
2.240000e+11 5.778920e-01 1.758924e-01 -4.551479e-01 3.096149e-01
2.250000e+11 5.156857e-01 1.398566e-01 -4.301201e-01 2.477268e-01
2.260000e+11 4.630583e-01 1.067808e-01 -4.032190e-01 2.010851e-01
2.270000e+11 4.208826e-01 7.835486e-02 -3.783025e-01 1.670028e-01
2.280000e+11 3.885171e-01 5.452139e-02 -3.572572e-01 1.426194e-01
2.290000e+11 3.648389e-01 3.452244e-02 -3.408028e-01 1.255749e-01
2.300000e+11 3.487587e-01 1.742611e-02 -3.290918e-01 1.141384e-01
2.310000e+11 3.394256e-01 2.338041e-03 -3.220651e-01 1.071368e-01
2.320000e+11 3.362874e-01 -1.154020e-02 -3.196429e-01 1.038482e-01
2.330000e+11 3.390954e-01 -2.491569e-02 -3.218174e-01 1.039157e-01
2.340000e+11 3.478947e-01 -3.842761e-02 -3.286965e-01 1.072969e-01
2.350000e+11 3.630125e-01 -5.266762e-02 -3.405163e-01 1.142490e-01
2.360000e+11 3.850430e-01 -6.818073e-02 -3.576282e-01 1.253458e-01
2.370000e+11 4.148102e-01 -8.542502e-02 -3.804512e-01 1.415164e-01
2.380000e+11 4.532715e-01 -1.046535e-01 -4.093643e-01 1.640839e-01
2.390000e+11 5.012977e-01 -1.256596e-01 -4.445020e-01 1.947487e-01
2.400000e+11 5.592405e-01 -1.473163e-01 -4.854242e-01 2.353959e-01
2.410000e+11 6.262239e-01 -1.668933e-01 -5.306972e-01 2.875126e-01
2.420000e+11 6.992765e-01 -1.793756e-01 -5.776135e-01 3.509624e-01
2.430000e+11 7.728166e-01 -1.775203e-01 -6.225312e-01 4.221219e-01
2.440000e+11 8.393002e-01 -1.538312e-01 -6.621986e-01 4.921929e-01
2.450000e+11 8.911172e-01 -1.049104e-01 -6.952647e-01 5.474400e-01
2.460000e+11 9.220883e-01 -3.613478e-02 -7.217376e-01 5.727442e-01
2.470000e+11 9.271302e-01 3.751296e-02 -7.395930e-01 5.578220e-01
2.480000e+11 9.023290e-01 9.720345e-02 -7.425613e-01 5.033405e-01
2.490000e+11 8.482762e-01 1.301554e-01 -7.239785e-01 4.224775e-01
2.500000e+11 7.730722e-01 1.357997e-01 -6.835400e-01 3.346224e-01
2.510000e+11 6.894959e-01 1.227948e-01 -6.285231e-01 2.555088e-01
2.520000e+11 6.089174e-01 1.014400e-01 -5.687790e-01 1.923037e-01
2.530000e+11 5.379682e-01 7.889816e-02 -5.119347e-01 1.452851e-01
2.540000e+11 4.789542e-01 5.864654e-02 -4.620636e-01 1.116017e-01
2.550000e+11 4.316436e-01 4.174249e-02 -4.205388e-01 8.786842e-02
2.560000e+11 3.947572e-01 2.807223e-02 -3.872602e-01 7.123688e-02
2.570000e+11 3.668080e-01 1.709971e-02 -3.615281e-01 5.960792e-02
2.580000e+11 3.464729e-01 8.217723e-03 -3.425213e-01 5.152755e-02
2.590000e+11 3.327174e-01 8.803813e-04 -3.295180e-01 4.602121e-02
2.600000e+11 3.248155e-01 -5.363790e-03 -3.219848e-01 4.245162e-02
2.610000e+11 3.223339e-01 -1.087716e-02 -3.196050e-01 4.041687e-02
2.620000e+11 3.251130e-01 -1.594915e-02 -3.222876e-01 3.968345e-02
2.630000e+11 3.332562e-01 -2.081192e-02 -3.301741e-01 4.014536e-02
2.640000e+11 3.471324e-01 -2.565027e-02 -3.436504e-01 4.180167e-02
2.650000e+11 3.673878e-01 -3.060250e-02 -3.633662e-01 4.474668e-02
2.660000e+11 3.949614e-01 -3.574723e-02 -3.902554e-01 4.916653e-02
2.670000e+11 4.310852e-01 -4.106830e-02 -4.255421e-01 5.533363e-02
2.680000e+11 4.772286e-01 -4.638566e-02 -4.706941e-01 6.358104e-02
2.690000e+11 5.349063e-01 -5.123961e-02 -5.272482e-01 7.421963e-02
2.700000e+11 6.052027e-01 -5.473148e-02 -5.963627e-01 8.732874e-02
2.710000e+11 6.877950e-01 -5.538976e-02 -6.778824e-01 1.023204e-01
2.720000e+11 7.792892e-01 -5.129053e-02 -7.687117e-01 1.172318e-01
2.730000e+11 8.711149e-01 -4.086463e-02 -8.606830e-01 1.280472e-01
2.740000e+11 9.484209e-01 -2.462913e-02 -9.392677e-01 1.291190e-01
2.750000e+11 9.928625e-01 -6.720752e-03 -9.860330e-01 1.160590e-01
2.760000e+11 9.908793e-01 6.458388e-03 -9.867601e-01 9.002584e-02
2.770000e+11 9.425392e-01 1.081059e-02 -9.406629e-01 5.845226e-02
2.780000e+11 8.618371e-01 7.387157e-03 -8.612840e-01 2.997498e-02
2.790000e+11 7.677772e-01 2.873264e-04 -7.677219e-01 9.209942e-03
2.800000e+11 6.754781e-01 -6.879323e-03 -6.754328e-01 -3.725826e-03
2.810000e+11 5.932571e-01 -1.237125e-02 -5.930290e-01 -1.084354e-02
2.820000e+11 5.240453e-01 -1.586978e-02 -5.236090e-01 -1.432459e-02
2.830000e+11 4.677601e-01 -1.768962e-02 -4.671589e-01 -1.578503e-02
2.840000e+11 4.230555e-01 -1.828245e-02 -4.223481e-01 -1.624285e-02
2.850000e+11 3.882802e-01 -1.803366e-02 -3.875189e-01 -1.629064e-02
2.860000e+11 3.619093e-01 -1.721354e-02 -3.611336e-01 -1.626377e-02
2.870000e+11 3.426997e-01 -1.598612e-02 -3.419356e-01 -1.635720e-02
2.880000e+11 3.297218e-01 -1.443074e-02 -3.289824e-01 -1.669818e-02
2.890000e+11 3.223460e-01 -1.256021e-02 -3.216314e-01 -1.739108e-02
2.900000e+11 3.202202e-01 -1.033141e-02 -3.195156e-01 -1.854795e-02
2.910000e+11 3.232542e-01 -7.648293e-03 -3.225246e-01 -2.031419e-02
2.920000e+11 3.316158e-01 -4.357940e-03 -3.307957e-01 -2.289675e-02
2.930000e+11 3.457413e-01 -2.411721e-04 -3.447163e-01 -2.660180e-02
2.940000e+11 3.663560e-01 4.999911e-03 -3.649312e-01 -3.188972e-02
2.950000e+11 3.944967e-01 1.175075e-02 -3.923426e-01 -3.945743e-02
2.960000e+11 4.315101e-01 2.047250e-02 -4.280724e-01 -5.035764e-02
2.970000e+11 4.789712e-01 3.162955e-02 -4.733249e-01 -6.615548e-02
2.980000e+11 5.384014e-01 4.547279e-02 -5.290298e-01 -8.908313e-02
2.990000e+11 6.105765e-01 6.153609e-02 -5.950831e-01 -1.220373e-01
3.000000e+11 6.941672e-01 7.770534e-02 -6.690291e-01 -1.680183e-01
