# #nu(Hz) #T #rho #c #s
0.000000e+00 1.000000e+00 0.000000e+00 1.000000e+00 0.000000e+00
1.000000e+09 9.606046e-01 -7.261178e-03 9.598581e-01 3.716024e-02
2.000000e+09 8.618522e-01 -2.268330e-02 8.595353e-01 5.893796e-02
3.000000e+09 7.420598e-01 -3.593288e-02 7.384291e-01 6.390655e-02
4.000000e+09 6.297102e-01 -4.274255e-02 6.254559e-01 5.927031e-02
5.000000e+09 5.366687e-01 -4.406473e-02 5.323654e-01 5.156295e-02
6.000000e+09 4.644630e-01 -4.214339e-02 4.604384e-01 4.411680e-02
7.000000e+09 4.105938e-01 -3.869102e-02 4.069881e-01 3.809139e-02
8.000000e+09 3.718000e-01 -3.465759e-02 3.686456e-01 3.368285e-02
9.000000e+09 3.452815e-01 -3.045129e-02 3.425556e-01 3.078432e-02
1.000000e+10 3.290130e-01 -2.615460e-02 3.266632e-01 2.926793e-02
1.100000e+10 3.217477e-01 -2.165007e-02 3.196971e-01 2.909764e-02
1.200000e+10 3.229593e-01 -1.667060e-02 3.210939e-01 3.038970e-02
1.300000e+10 3.328113e-01 -1.079751e-02 3.309469e-01 3.348014e-02
1.400000e+10 3.521812e-01 -3.422578e-03 3.499940e-01 3.903975e-02
1.500000e+10 3.827315e-01 6.308050e-03 3.796216e-01 4.828115e-02
1.600000e+10 4.269664e-01 1.951851e-02 4.217944e-01 6.331531e-02
1.700000e+10 4.880737e-01 3.743884e-02 4.786690e-01 8.769418e-02
1.800000e+10 5.690051e-01 6.062147e-02 5.513355e-01 1.269685e-01
1.900000e+10 6.696735e-01 8.668475e-02 6.367921e-01 1.882664e-01
2.000000e+10 7.812883e-01 1.061261e-01 7.231487e-01 2.760519e-01
2.100000e+10 8.812227e-01 1.002734e-01 7.881685e-01 3.811681e-01
2.200000e+10 9.400723e-01 5.284306e-02 8.113421e-01 4.718765e-01
2.300000e+10 9.423431e-01 -2.717814e-02 7.919710e-01 5.099547e-01
2.400000e+10 8.941950e-01 -1.057805e-01 7.446545e-01 4.836165e-01
2.500000e+10 8.121612e-01 -1.540105e-01 6.817350e-01 4.136715e-01
2.600000e+10 7.149203e-01 -1.669047e-01 6.112636e-01 3.310751e-01
2.700000e+10 6.191260e-01 -1.559116e-01 5.411924e-01 2.571370e-01
2.800000e+10 5.353923e-01 -1.343618e-01 4.782507e-01 1.996698e-01
2.900000e+10 4.677574e-01 -1.107339e-01 4.260150e-01 1.582599e-01
3.000000e+10 4.160801e-01 -8.876152e-02 3.852577e-01 1.296940e-01
3.100000e+10 3.785403e-01 -6.940517e-02 3.552713e-01 1.107157e-01
3.200000e+10 3.531151e-01 -5.236101e-02 3.349178e-01 9.888689e-02
3.300000e+10 3.382179e-01 -3.683155e-02 3.231840e-01 9.266561e-02
3.400000e+10 3.329146e-01 -2.182317e-02 3.194071e-01 9.129609e-02
3.500000e+10 3.369882e-01 -6.204522e-03 3.233389e-01 9.473358e-02
3.600000e+10 3.509801e-01 1.134452e-02 3.351243e-01 1.036824e-01
3.700000e+10 3.762399e-01 3.241427e-02 3.551869e-01 1.197832e-01
3.800000e+10 4.149147e-01 5.886832e-02 3.839046e-01 1.459659e-01
3.900000e+10 4.696160e-01 9.249438e-02 4.207854e-01 1.868787e-01
4.000000e+10 5.420860e-01 1.336389e-01 4.626653e-01 2.488750e-01
4.100000e+10 6.297429e-01 1.777474e-01 5.007903e-01 3.379216e-01
4.200000e+10 7.202885e-01 2.101153e-01 5.193507e-01 4.527052e-01
4.300000e+10 7.912298e-01 2.059725e-01 5.032595e-01 5.747606e-01
4.400000e+10 8.251079e-01 1.472257e-01 4.567291e-01 6.712125e-01
4.500000e+10 8.268892e-01 4.298217e-02 4.074757e-01 7.182352e-01
4.600000e+10 8.136654e-01 -7.624033e-02 3.820064e-01 7.143598e-01
4.700000e+10 7.922119e-01 -1.789258e-01 3.849953e-01 6.688526e-01
4.800000e+10 7.563554e-01 -2.435466e-01 4.021092e-01 5.925089e-01
4.900000e+10 7.007774e-01 -2.636622e-01 4.146726e-01 4.996177e-01
5.000000e+10 6.307331e-01 -2.483655e-01 4.128261e-01 4.070791e-01
5.100000e+10 5.581447e-01 -2.139397e-01 3.980273e-01 3.276119e-01
5.200000e+10 4.931098e-01 -1.739564e-01 3.769210e-01 2.661334e-01
5.300000e+10 4.405567e-01 -1.357056e-01 3.555847e-01 2.218867e-01
5.400000e+10 4.015183e-01 -1.015709e-01 3.377095e-01 1.919701e-01
5.500000e+10 3.752989e-01 -7.131772e-02 3.250470e-01 1.735151e-01
5.600000e+10 3.609176e-01 -4.358578e-02 3.182684e-01 1.645207e-01
5.700000e+10 3.578165e-01 -1.655709e-02 3.175603e-01 1.640547e-01
5.800000e+10 3.661682e-01 1.185376e-02 3.228784e-01 1.723026e-01
5.900000e+10 3.869900e-01 4.399664e-02 3.338737e-01 1.906670e-01
6.000000e+10 4.220540e-01 8.240717e-02 3.494076e-01 2.219301e-01
6.100000e+10 4.732543e-01 1.292061e-01 3.664128e-01 2.702168e-01
6.200000e+10 5.405814e-01 1.840859e-01 3.779282e-01 3.398690e-01
6.300000e+10 6.177153e-01 2.398880e-01 3.713812e-01 4.313954e-01
6.400000e+10 6.873109e-01 2.778555e-01 3.318749e-01 5.339022e-01
6.500000e+10 7.261868e-01 2.728199e-01 2.560348e-01 6.223847e-01
6.600000e+10 7.260475e-01 2.140721e-01 1.644988e-01 6.739868e-01
6.700000e+10 7.039645e-01 1.164256e-01 8.885633e-02 6.885605e-01
6.800000e+10 6.842590e-01 3.646444e-03 4.830325e-02 6.825423e-01
6.900000e+10 6.794295e-01 -1.074361e-01 4.616352e-02 6.692913e-01
7.000000e+10 6.869009e-01 -2.056635e-01 7.763241e-02 6.507753e-01
7.100000e+10 6.933839e-01 -2.793308e-01 1.328592e-01 6.205674e-01
7.200000e+10 6.829387e-01 -3.168410e-01 1.964717e-01 5.722027e-01
7.300000e+10 6.479725e-01 -3.146977e-01 2.514869e-01 5.075313e-01
7.400000e+10 5.944461e-01 -2.819104e-01 2.877026e-01 4.371726e-01
7.500000e+10 5.355267e-01 -2.336067e-01 3.052069e-01 3.729149e-01
7.600000e+10 4.824083e-01 -1.819810e-01 3.100938e-01 3.216247e-01
7.700000e+10 4.409818e-01 -1.330646e-01 3.089842e-01 2.851098e-01
7.800000e+10 4.132219e-01 -8.812719e-02 3.065818e-01 2.626662e-01
7.900000e+10 3.994409e-01 -4.585746e-02 3.055186e-01 2.531966e-01
8.000000e+10 3.997979e-01 -3.741538e-03 3.068131e-01 2.563007e-01
8.100000e+10 4.149980e-01 4.129300e-02 3.100713e-01 2.727160e-01
8.200000e+10 4.463142e-01 9.241678e-02 3.130973e-01 3.043445e-01
8.300000e+10 4.946245e-01 1.518247e-01 3.107846e-01 3.535755e-01
8.400000e+10 5.575432e-01 2.178794e-01 2.937295e-01 4.208396e-01
8.500000e+10 6.242525e-01 2.799757e-01 2.491288e-01 4.992390e-01
8.600000e+10 6.729334e-01 3.159823e-01 1.692333e-01 5.695214e-01
8.700000e+10 6.826386e-01 3.040982e-01 6.533592e-02 6.076603e-01
8.800000e+10 6.547040e-01 2.442315e-01 -3.403233e-02 6.064899e-01
8.900000e+10 6.120305e-01 1.572814e-01 -1.063082e-01 5.818440e-01
9.000000e+10 5.774019e-01 6.361189e-02 -1.469117e-01 5.547643e-01
9.100000e+10 5.621387e-01 -2.769491e-02 -1.608215e-01 5.379307e-01
9.200000e+10 5.682287e-01 -1.151245e-01 -1.527852e-01 5.350578e-01
9.300000e+10 5.917984e-01 -1.980261e-01 -1.241940e-01 5.436790e-01
9.400000e+10 6.236069e-01 -2.715977e-01 -7.471817e-02 5.563609e-01
9.500000e+10 6.491680e-01 -3.250837e-01 -6.719915e-03 5.618670e-01
9.600000e+10 6.534917e-01 -3.461167e-01 7.054613e-02 5.497981e-01
9.700000e+10 6.305830e-01 -3.302808e-01 1.426360e-01 5.178846e-01
9.800000e+10 5.879000e-01 -2.856996e-01 1.981587e-01 4.740625e-01
9.900000e+10 5.397164e-01 -2.264686e-01 2.344328e-01 4.301709e-01
1.000000e+11 4.981047e-01 -1.636187e-01 2.553146e-01 3.951603e-01
1.010000e+11 4.698830e-01 -1.019608e-01 2.661833e-01 3.735512e-01
1.020000e+11 4.581387e-01 -4.148260e-02 2.708427e-01 3.671709e-01
1.030000e+11 4.644066e-01 2.041603e-02 2.704193e-01 3.770015e-01
1.040000e+11 4.896568e-01 8.707255e-02 2.628184e-01 4.038670e-01
1.050000e+11 5.333716e-01 1.603278e-01 2.420455e-01 4.474307e-01
1.060000e+11 5.899583e-01 2.364716e-01 1.983895e-01 5.027659e-01
1.070000e+11 6.435539e-01 3.009417e-01 1.231279e-01 5.553694e-01
1.080000e+11 6.696134e-01 3.299270e-01 2.034970e-02 5.823368e-01
1.090000e+11 6.530273e-01 3.085161e-01 -8.628902e-02 5.690489e-01
1.100000e+11 6.045810e-01 2.471678e-01 -1.700755e-01 5.248815e-01
1.110000e+11 5.489816e-01 1.697205e-01 -2.219413e-01 4.725652e-01
1.120000e+11 5.044722e-01 9.297358e-02 -2.483082e-01 4.291750e-01
1.130000e+11 4.783771e-01 2.223500e-02 -2.588026e-01 4.017107e-01
1.140000e+11 4.718928e-01 -4.372446e-02 -2.598828e-01 3.914484e-01
1.150000e+11 4.840850e-01 -1.080565e-01 -2.539056e-01 3.977362e-01
1.160000e+11 5.130090e-01 -1.730949e-01 -2.397125e-01 4.192306e-01
1.170000e+11 5.546459e-01 -2.381375e-01 -2.134169e-01 4.531840e-01
1.180000e+11 6.007137e-01 -2.971120e-01 -1.700967e-01 4.936076e-01
1.190000e+11 6.378620e-01 -3.378861e-01 -1.076383e-01 5.302028e-01
1.200000e+11 6.523394e-01 -3.470488e-01 -3.153335e-02 5.514612e-01
1.210000e+11 6.395331e-01 -3.194878e-01 4.507818e-02 5.521757e-01
1.220000e+11 6.082309e-01 -2.625974e-01 1.088745e-01 5.377116e-01
1.230000e+11 5.738529e-01 -1.893866e-01 1.533836e-01 5.195318e-01
1.240000e+11 5.495681e-01 -1.095007e-01 1.784895e-01 5.081104e-01
1.250000e+11 5.432368e-01 -2.641758e-02 1.856521e-01 5.098447e-01
1.260000e+11 5.581840e-01 6.027833e-02 1.739628e-01 5.269468e-01
1.270000e+11 5.930794e-01 1.503862e-01 1.386369e-01 5.566929e-01
1.280000e+11 6.385970e-01 2.369594e-01 7.321907e-02 5.884687e-01
1.290000e+11 6.739195e-01 3.015297e-01 -2.183394e-02 6.023044e-01
1.300000e+11 6.745612e-01 3.214788e-01 -1.285493e-01 5.789294e-01
1.310000e+11 6.340371e-01 2.916067e-01 -2.177599e-01 5.191812e-01
1.320000e+11 5.705545e-01 2.308398e-01 -2.728706e-01 4.447325e-01
1.330000e+11 5.074030e-01 1.626515e-01 -2.978988e-01 3.771719e-01
1.340000e+11 4.577120e-01 9.983020e-02 -3.051295e-01 3.262363e-01
1.350000e+11 4.251696e-01 4.518018e-02 -3.047441e-01 2.930171e-01
1.360000e+11 4.093537e-01 -3.180176e-03 -3.026026e-01 2.756665e-01
1.370000e+11 4.090711e-01 -4.847494e-02 -3.013069e-01 2.724032e-01
1.380000e+11 4.235531e-01 -9.390396e-02 -3.013237e-01 2.824593e-01
1.390000e+11 4.524531e-01 -1.420094e-01 -3.014187e-01 3.060946e-01
1.400000e+11 4.950145e-01 -1.938502e-01 -2.985004e-01 3.440333e-01
1.410000e+11 5.483393e-01 -2.474025e-01 -2.873317e-01 3.961167e-01
1.420000e+11 6.050835e-01 -2.953437e-01 -2.612165e-01 4.589815e-01
1.430000e+11 6.528029e-01 -3.244007e-01 -2.153332e-01 5.239727e-01
1.440000e+11 6.789039e-01 -3.202154e-01 -1.523839e-01 5.789230e-01
1.450000e+11 6.802862e-01 -2.768561e-01 -8.490551e-02 6.155738e-01
1.460000e+11 6.672950e-01 -2.007484e-01 -2.938647e-02 6.357036e-01
1.470000e+11 6.563836e-01 -1.039138e-01 1.519393e-03 6.481042e-01
1.480000e+11 6.600776e-01 3.652051e-03 4.083280e-04 6.600673e-01
1.490000e+11 6.810030e-01 1.135249e-01 -3.711638e-02 6.704473e-01
1.500000e+11 7.081800e-01 2.119777e-01 -1.103756e-01 6.666345e-01
1.510000e+11 7.179514e-01 2.765451e-01 -2.050536e-01 6.300238e-01
1.520000e+11 6.897239e-01 2.890241e-01 -2.914762e-01 5.542794e-01
1.530000e+11 6.268074e-01 2.550643e-01 -3.445258e-01 4.573091e-01
1.540000e+11 5.514823e-01 1.987979e-01 -3.621877e-01 3.652837e-01
1.550000e+11 4.832987e-01 1.410445e-01 -3.577865e-01 2.926994e-01
1.560000e+11 4.305697e-01 9.082115e-02 -3.447885e-01 2.413766e-01
1.570000e+11 3.942185e-01 4.922075e-02 -3.313616e-01 2.078100e-01
1.580000e+11 3.726121e-01 1.425513e-02 -3.213836e-01 1.880136e-01
1.590000e+11 3.639987e-01 -1.672663e-02 -3.164187e-01 1.791493e-01
1.600000e+11 3.673264e-01 -4.625186e-02 -3.169811e-01 1.797566e-01
1.610000e+11 3.823844e-01 -7.657646e-02 -3.230947e-01 1.896410e-01
1.620000e+11 4.096698e-01 -1.096397e-01 -3.343742e-01 2.097674e-01
1.630000e+11 4.499970e-01 -1.467994e-01 -3.497286e-01 2.421512e-01
1.640000e+11 5.036216e-01 -1.880135e-01 -3.667071e-01 2.895023e-01
1.650000e+11 5.685660e-01 -2.301334e-01 -3.806961e-01 3.540853e-01
1.660000e+11 6.384175e-01 -2.645909e-01 -3.849331e-01 4.351954e-01
1.670000e+11 7.018335e-01 -2.767841e-01 -3.733747e-01 5.258823e-01
1.680000e+11 7.475734e-01 -2.512283e-01 -3.471651e-01 6.125576e-01
1.690000e+11 7.735493e-01 -1.816790e-01 -3.193205e-01 6.807390e-01
1.700000e+11 7.886371e-01 -7.660812e-02 -3.098573e-01 7.211575e-01
1.710000e+11 8.012359e-01 4.387703e-02 -3.334100e-01 7.272493e-01
1.720000e+11 8.055402e-01 1.517466e-01 -3.872660e-01 6.898501e-01
1.730000e+11 7.826066e-01 2.172916e-01 -4.468487e-01 6.046351e-01
1.740000e+11 7.218837e-01 2.273727e-01 -4.809411e-01 4.879687e-01
1.750000e+11 6.366596e-01 1.965300e-01 -4.783609e-01 3.713250e-01
1.760000e+11 5.500140e-01 1.502436e-01 -4.508118e-01 2.769675e-01
1.770000e+11 4.766109e-01 1.055073e-01 -4.148564e-01 2.095717e-01
1.780000e+11 4.206029e-01 6.831022e-02 -3.810495e-01 1.644439e-01
1.790000e+11 3.808574e-01 3.877349e-02 -3.538816e-01 1.353395e-01
1.800000e+11 3.548996e-01 1.511151e-02 -3.345831e-01 1.173863e-01
1.810000e+11 3.405638e-01 -4.686043e-03 -3.231422e-01 1.074285e-01
1.820000e+11 3.364561e-01 -2.238259e-02 -3.192987e-01 1.036824e-01
1.830000e+11 3.420035e-01 -3.946542e-02 -3.229571e-01 1.053924e-01
1.840000e+11 3.574077e-01 -5.722407e-02 -3.343318e-01 1.126408e-01
1.850000e+11 3.835878e-01 -7.679883e-02 -3.539588e-01 1.263120e-01
1.860000e+11 4.220751e-01 -9.909950e-02 -3.825859e-01 1.481711e-01
1.870000e+11 4.747082e-01 -1.244353e-01 -4.208540e-01 1.809576e-01
1.880000e+11 5.428312e-01 -1.515839e-01 -4.686228e-01 2.282120e-01
1.890000e+11 6.256156e-01 -1.760402e-01 -5.238971e-01 2.931494e-01
1.900000e+11 7.176278e-01 -1.879409e-01 -5.819637e-01 3.754812e-01
1.910000e+11 8.074746e-01 -1.725152e-01 -6.365221e-01 4.659327e-01
1.920000e+11 8.804427e-01 -1.179929e-01 -6.836063e-01 5.421619e-01
1.930000e+11 9.230811e-01 -3.019851e-02 -7.224984e-01 5.737272e-01
1.940000e+11 9.232500e-01 6.081547e-02 -7.468741e-01 5.393247e-01
1.950000e+11 8.727822e-01 1.183580e-01 -7.402993e-01 4.468749e-01
1.960000e+11 7.806221e-01 1.294487e-01 -6.941532e-01 3.328142e-01
1.970000e+11 6.727318e-01 1.095667e-01 -6.215990e-01 2.327615e-01
1.980000e+11 5.727243e-01 7.989242e-02 -5.439864e-01 1.603408e-01
1.990000e+11 4.912391e-01 5.237596e-02 -4.752448e-01 1.127606e-01
2.000000e+11 4.293894e-01 3.053984e-02 -4.202415e-01 8.270238e-02
2.010000e+11 3.845698e-01 1.409848e-02 -3.789550e-01 6.393953e-02
2.020000e+11 3.536475e-01 1.740344e-03 -3.497504e-01 5.232799e-02
2.030000e+11 3.340890e-01 -7.830379e-03 -3.309033e-01 4.535546e-02
2.040000e+11 3.241920e-01 -1.564137e-02 -3.211349e-01 4.157139e-02
2.050000e+11 3.230489e-01 -2.245901e-02 -3.197514e-01 4.018968e-02
2.060000e+11 3.304770e-01 -2.884995e-02 -3.266703e-01 4.085696e-02
2.070000e+11 3.469899e-01 -3.523025e-02 -3.424407e-01 4.353372e-02
2.080000e+11 3.738185e-01 -4.187601e-02 -3.682931e-01 4.844456e-02
2.090000e+11 4.129535e-01 -4.887005e-02 -4.062014e-01 5.605981e-02
2.100000e+11 4.671129e-01 -5.593947e-02 -4.588785e-01 6.705048e-02
2.110000e+11 5.393841e-01 -6.211947e-02 -5.294707e-01 8.207998e-02
2.120000e+11 6.319684e-01 -6.523606e-02 -6.204053e-01 1.011218e-01
2.130000e+11 7.430234e-01 -6.158714e-02 -7.303790e-01 1.218087e-01
2.140000e+11 8.608400e-01 -4.726747e-02 -8.485694e-01 1.368988e-01
2.150000e+11 9.581830e-01 -2.313665e-02 -9.484607e-01 1.341698e-01
2.160000e+11 9.980929e-01 7.187921e-05 -9.924916e-01 1.055929e-01
2.170000e+11 9.601740e-01 8.877223e-03 -9.582169e-01 6.062738e-02
2.180000e+11 8.618694e-01 2.257704e-03 -8.616386e-01 1.981429e-02
2.190000e+11 7.414500e-01 -1.004384e-02 -7.413607e-01 -5.619277e-03
2.200000e+11 6.283630e-01 -2.020189e-02 -6.277979e-01 -1.737035e-02
2.210000e+11 5.349394e-01 -2.608902e-02 -5.338837e-01 -2.115908e-02
2.220000e+11 4.626855e-01 -2.847928e-02 -4.613146e-01 -2.134572e-02
2.230000e+11 4.089550e-01 -2.865197e-02 -4.074454e-01 -2.028608e-02
2.240000e+11 3.703704e-01 -2.756690e-02 -3.688504e-01 -1.906933e-02
2.250000e+11 3.440649e-01 -2.578124e-02 -3.426163e-01 -1.816679e-02
2.260000e+11 3.279794e-01 -2.354859e-02 -3.266484e-01 -1.779806e-02
2.270000e+11 3.208488e-01 -2.091178e-02 -3.196536e-01 -1.811722e-02
2.280000e+11 3.221321e-01 -1.775216e-02 -3.210619e-01 -1.931788e-02
2.290000e+11 3.319744e-01 -1.379743e-02 -3.309757e-01 -2.171931e-02
2.300000e+11 3.512265e-01 -8.595452e-03 -3.501664e-01 -2.587737e-02
2.310000e+11 3.815139e-01 -1.465271e-03 -3.801014e-01 -3.276535e-02
2.320000e+11 4.253069e-01 8.540470e-03 -4.229300e-01 -4.408293e-02
2.330000e+11 4.858165e-01 2.254506e-02 -4.812193e-01 -6.274875e-02
2.340000e+11 5.662351e-01 4.129210e-02 -5.569333e-01 -9.350068e-02
2.350000e+11 6.672678e-01 6.339128e-02 -6.486955e-01 -1.429059e-01
2.360000e+11 7.817059e-01 8.170275e-02 -7.466931e-01 -2.164211e-01
2.370000e+11 8.880973e-01 8.053412e-02 -8.286950e-01 -3.090238e-01
2.380000e+11 9.544473e-01 4.382313e-02 -8.680457e-01 -3.943931e-01
2.390000e+11 9.591110e-01 -2.349569e-02 -8.543649e-01 -4.352040e-01
2.400000e+11 9.059431e-01 -9.161509e-02 -7.993817e-01 -4.163272e-01
2.410000e+11 8.157150e-01 -1.335654e-01 -7.215752e-01 -3.562027e-01
2.420000e+11 7.120442e-01 -1.447332e-01 -6.365405e-01 -2.843861e-01
2.430000e+11 6.131346e-01 -1.354335e-01 -5.558417e-01 -2.205261e-01
2.440000e+11 5.287288e-01 -1.172392e-01 -4.862879e-01 -1.712693e-01
2.450000e+11 4.616046e-01 -9.730024e-02 -4.302660e-01 -1.359509e-01
2.460000e+11 4.107990e-01 -7.871070e-02 -3.874207e-01 -1.116498e-01
2.470000e+11 3.741026e-01 -6.225838e-02 -3.563011e-01 -9.553091e-02
2.480000e+11 3.493459e-01 -4.768756e-02 -3.353449e-01 -8.551157e-02
2.490000e+11 3.348994e-01 -3.432871e-02 -3.233145e-01 -8.029267e-02
2.500000e+11 3.298172e-01 -2.133788e-02 -3.194417e-01 -7.925321e-02
2.510000e+11 3.338680e-01 -7.739577e-03 -3.234503e-01 -8.238805e-02
2.520000e+11 3.475636e-01 7.622852e-03 -3.355282e-01 -9.035028e-02
2.530000e+11 3.722094e-01 2.616759e-02 -3.562401e-01 -1.046331e-01
2.540000e+11 4.099237e-01 4.960019e-02 -3.862818e-01 -1.279203e-01
2.550000e+11 4.634086e-01 7.966278e-02 -4.258168e-01 -1.645644e-01
2.560000e+11 5.348897e-01 1.170419e-01 -4.729108e-01 -2.208246e-01
2.570000e+11 6.231341e-01 1.584036e-01 -5.206654e-01 -3.034995e-01
2.580000e+11 7.181383e-01 1.912920e-01 -5.546363e-01 -4.141360e-01
2.590000e+11 7.985842e-01 1.923217e-01 -5.575076e-01 -5.384556e-01
2.600000e+11 8.435916e-01 1.407808e-01 -5.265403e-01 -6.438811e-01
2.610000e+11 8.520353e-01 4.152202e-02 -4.839875e-01 -6.999973e-01
2.620000e+11 8.381633e-01 -7.495486e-02 -4.567487e-01 -6.987705e-01
2.630000e+11 8.097384e-01 -1.741122e-01 -4.516470e-01 -6.491350e-01
2.640000e+11 7.636285e-01 -2.334186e-01 -4.558936e-01 -5.663967e-01
2.650000e+11 6.985969e-01 -2.486340e-01 -4.534824e-01 -4.696515e-01
2.660000e+11 6.227283e-01 -2.312039e-01 -4.380968e-01 -3.773678e-01
2.670000e+11 5.480552e-01 -1.975920e-01 -4.132799e-01 -3.008682e-01
2.680000e+11 4.832399e-01 -1.601431e-01 -3.857030e-01 -2.431218e-01
2.690000e+11 4.318235e-01 -1.249709e-01 -3.605091e-01 -2.022054e-01
2.700000e+11 3.940311e-01 -9.383550e-02 -3.404386e-01 -1.748055e-01
2.710000e+11 3.688123e-01 -6.631278e-02 -3.265839e-01 -1.580130e-01
2.720000e+11 3.550594e-01 -4.107860e-02 -3.192363e-01 -1.498931e-01
2.730000e+11 3.521697e-01 -1.644751e-02 -3.184069e-01 -1.495662e-01
2.740000e+11 3.602832e-01 9.494883e-03 -3.240335e-01 -1.572136e-01
2.750000e+11 3.803798e-01 3.891950e-02 -3.359141e-01 -1.741717e-01
2.760000e+11 4.142302e-01 7.422725e-02 -3.532916e-01 -2.031305e-01
2.770000e+11 4.639182e-01 1.176005e-01 -3.738492e-01 -2.482480e-01
2.780000e+11 5.301808e-01 1.693490e-01 -3.918318e-01 -3.144525e-01
2.790000e+11 6.084820e-01 2.239616e-01 -3.958680e-01 -4.042030e-01
2.800000e+11 6.838383e-01 2.648999e-01 -3.703582e-01 -5.101937e-01
2.810000e+11 7.330360e-01 2.668352e-01 -3.072026e-01 -6.097272e-01
2.820000e+11 7.432648e-01 2.145023e-01 -2.215270e-01 -6.762818e-01
2.830000e+11 7.272555e-01 1.185941e-01 -1.452314e-01 -7.026691e-01
2.840000e+11 7.091964e-01 3.569035e-03 -1.021411e-01 -7.017934e-01
2.850000e+11 7.029721e-01 -1.104883e-01 -9.863338e-02 -6.871925e-01
2.860000e+11 7.062014e-01 -2.093874e-01 -1.295924e-01 -6.618785e-01
2.870000e+11 7.052214e-01 -2.798295e-01 -1.826736e-01 -6.210177e-01
2.880000e+11 6.852782e-01 -3.112100e-01 -2.402459e-01 -5.612810e-01
2.890000e+11 6.418720e-01 -3.032771e-01 -2.857673e-01 -4.882209e-01
2.900000e+11 5.833914e-01 -2.676850e-01 -3.118351e-01 -4.140642e-01
2.910000e+11 5.229863e-01 -2.197452e-01 -3.209899e-01 -3.495599e-01
2.920000e+11 4.704165e-01 -1.703936e-01 -3.200767e-01 -2.996809e-01
2.930000e+11 4.302233e-01 -1.244738e-01 -3.153556e-01 -2.648570e-01
2.940000e+11 4.035973e-01 -8.263807e-02 -3.109197e-01 -2.437020e-01
2.950000e+11 3.904942e-01 -4.340508e-02 -3.089443e-01 -2.348513e-01
2.960000e+11 3.909252e-01 -4.325771e-03 -3.102426e-01 -2.378094e-01
2.970000e+11 4.055384e-01 3.752502e-02 -3.144846e-01 -2.532838e-01
2.980000e+11 4.356548e-01 8.522704e-02 -3.198507e-01 -2.832437e-01
2.990000e+11 4.825041e-01 1.411853e-01 -3.219707e-01 -3.304720e-01
