# #nu(Hz) #T #rho #c #s
0.000000e+00 1.000000e+00 0.000000e+00 1.000000e+00 0.000000e+00
1.000000e+09 9.628552e-01 1.853783e-02 9.599751e-01 -7.207194e-02
2.000000e+09 8.710772e-01 5.962666e-02 8.617373e-01 -1.123787e-01
3.000000e+09 7.612815e-01 9.897904e-02 7.455659e-01 -1.178312e-01
4.000000e+09 6.583591e-01 1.250397e-01 6.381276e-01 -1.029316e-01
5.000000e+09 5.718520e-01 1.382311e-01 5.489413e-01 -8.105730e-02
6.000000e+09 5.029637e-01 1.429422e-01 4.785711e-01 -5.924231e-02
7.000000e+09 4.498579e-01 1.432404e-01 4.245654e-01 -3.998169e-02
8.000000e+09 4.100655e-01 1.418802e-01 3.840158e-01 -2.357175e-02
9.000000e+09 3.813616e-01 1.405115e-01 3.544058e-01 -9.468686e-03
1.000000e+10 3.620151e-01 1.400810e-01 3.338002e-01 3.112292e-03
1.100000e+10 3.508143e-01 1.411437e-01 3.208184e-01 1.498901e-02
1.200000e+10 3.470253e-01 1.440594e-01 3.145563e-01 2.697733e-02
1.300000e+10 3.503425e-01 1.491000e-01 3.145071e-01 3.992900e-02
1.400000e+10 3.608489e-01 1.564948e-01 3.204965e-01 5.480247e-02
1.500000e+10 3.789823e-01 1.664170e-01 3.326260e-01 7.275222e-02
1.600000e+10 4.054886e-01 1.788994e-01 3.512094e-01 9.522595e-02
1.700000e+10 4.413278e-01 1.936355e-01 3.766812e-01 1.240436e-01
1.800000e+10 4.874730e-01 2.095996e-01 4.094535e-01 1.613871e-01
1.900000e+10 5.445407e-01 2.244182e-01 4.497275e-01 2.095382e-01
2.000000e+10 6.122383e-01 2.335380e-01 4.973544e-01 2.700635e-01
2.100000e+10 6.887816e-01 2.296209e-01 5.520002e-01 3.420382e-01
2.200000e+10 7.705446e-01 2.033684e-01 6.137983e-01 4.190846e-01
2.300000e+10 8.515324e-01 1.477787e-01 6.834977e-01 4.859010e-01
2.400000e+10 9.205732e-01 6.711805e-02 7.584510e-01 5.173996e-01
2.500000e+10 9.564896e-01 -1.420026e-02 8.222882e-01 4.883778e-01
2.600000e+10 9.348632e-01 -6.033914e-02 8.434131e-01 3.987264e-01
2.700000e+10 8.547404e-01 -5.676023e-02 8.035494e-01 2.857759e-01
2.800000e+10 7.458808e-01 -2.244733e-02 7.206020e-01 1.912254e-01
2.900000e+10 6.399685e-01 1.729642e-02 6.265036e-01 1.294361e-01
3.000000e+10 5.520736e-01 5.015858e-02 5.415928e-01 9.458650e-02
3.100000e+10 4.845550e-01 7.433817e-02 4.725929e-01 7.696333e-02
3.200000e+10 4.348771e-01 9.189713e-02 4.193398e-01 6.947782e-02
3.300000e+10 3.997095e-01 1.053877e-01 3.795139e-01 6.804693e-02
3.400000e+10 3.762791e-01 1.168862e-01 3.506277e-01 7.059597e-02
3.500000e+10 3.626156e-01 1.279283e-01 3.306254e-01 7.623168e-02
3.600000e+10 3.574745e-01 1.396584e-01 3.179598e-01 8.476515e-02
3.700000e+10 3.602029e-01 1.529778e-01 3.115054e-01 9.647959e-02
3.800000e+10 3.706143e-01 1.686338e-01 3.104264e-01 1.120405e-01
3.900000e+10 3.888659e-01 1.872325e-01 3.140218e-01 1.324800e-01
4.000000e+10 4.152984e-01 2.091439e-01 3.215367e-01 1.592035e-01
4.100000e+10 4.501772e-01 2.342475e-01 3.319196e-01 1.939509e-01
4.200000e+10 4.932633e-01 2.614472e-01 3.435409e-01 2.386079e-01
4.300000e+10 5.432101e-01 2.879429e-01 3.539893e-01 2.947162e-01
4.400000e+10 5.970097e-01 3.084742e-01 3.602752e-01 3.625825e-01
4.500000e+10 6.501369e-01 3.151893e-01 3.599540e-01 4.401895e-01
4.600000e+10 6.982043e-01 2.990477e-01 3.534145e-01 5.226451e-01
4.700000e+10 7.398544e-01 2.528885e-01 3.464076e-01 6.028545e-01
4.800000e+10 7.782575e-01 1.748034e-01 3.506288e-01 6.724491e-01
4.900000e+10 8.174812e-01 7.099883e-02 3.800995e-01 7.202493e-01
5.000000e+10 8.528073e-01 -4.015984e-02 4.413584e-01 7.286084e-01
5.100000e+10 8.631481e-01 -1.260506e-01 5.188145e-01 6.782090e-01
5.200000e+10 8.250685e-01 -1.560358e-01 5.744392e-01 5.713234e-01
5.300000e+10 7.428106e-01 -1.310190e-01 5.811414e-01 4.437074e-01
5.400000e+10 6.457391e-01 -7.949216e-02 5.470409e-01 3.337758e-01
5.500000e+10 5.586330e-01 -2.658059e-02 4.959770e-01 2.556778e-01
5.600000e+10 4.906862e-01 1.776359e-02 4.451021e-01 2.057705e-01
5.700000e+10 4.417578e-01 5.295031e-02 4.016719e-01 1.760850e-01
5.800000e+10 4.088888e-01 8.144615e-02 3.672954e-01 1.601583e-01
5.900000e+10 3.891496e-01 1.060147e-01 3.413442e-01 1.538909e-01
6.000000e+10 3.804024e-01 1.289769e-01 3.225515e-01 1.550207e-01
6.100000e+10 3.813220e-01 1.521649e-01 3.095728e-01 1.625331e-01
6.200000e+10 3.912155e-01 1.770101e-01 3.010816e-01 1.762582e-01
6.300000e+10 4.097790e-01 2.045672e-01 2.956611e-01 1.966103e-01
6.400000e+10 4.367741e-01 2.353831e-01 2.915920e-01 2.243670e-01
6.500000e+10 4.715574e-01 2.691394e-01 2.866016e-01 2.603650e-01
6.600000e+10 5.124231e-01 3.040434e-01 2.776996e-01 3.049885e-01
6.700000e+10 5.559169e-01 3.361292e-01 2.613746e-01 3.574131e-01
6.800000e+10 5.966846e-01 3.590310e-01 2.345318e-01 4.148785e-01
6.900000e+10 6.287397e-01 3.651053e-01 1.962523e-01 4.727545e-01
7.000000e+10 6.483768e-01 3.481180e-01 1.495106e-01 5.261681e-01
7.100000e+10 6.570679e-01 3.058551e-01 1.013212e-01 5.726472e-01
7.200000e+10 6.617857e-01 2.402513e-01 6.101868e-02 6.136093e-01
7.300000e+10 6.722406e-01 1.550980e-01 3.851223e-02 6.529693e-01
7.400000e+10 6.965318e-01 5.451178e-02 4.405260e-02 6.929967e-01
7.500000e+10 7.354589e-01 -5.426020e-02 8.763767e-02 7.282001e-01
7.600000e+10 7.751084e-01 -1.533314e-01 1.722627e-01 7.400055e-01
7.700000e+10 7.863909e-01 -2.123789e-01 2.794020e-01 7.037332e-01
7.800000e+10 7.481298e-01 -2.104165e-01 3.689018e-01 6.159014e-01
7.900000e+10 6.725291e-01 -1.603711e-01 4.124473e-01 5.064225e-01
8.000000e+10 5.898208e-01 -9.323223e-02 4.147162e-01 4.089093e-01
8.100000e+10 5.202907e-01 -2.983303e-02 3.951524e-01 3.371454e-01
8.200000e+10 4.698935e-01 2.364051e-02 3.689049e-01 2.900866e-01
8.300000e+10 4.375915e-01 6.834324e-02 3.434627e-01 2.623907e-01
8.400000e+10 4.206973e-01 1.074124e-01 3.214081e-01 2.492903e-01
8.500000e+10 4.168652e-01 1.439002e-01 3.029062e-01 2.476230e-01
8.600000e+10 4.244480e-01 1.802281e-01 2.869579e-01 2.555956e-01
8.700000e+10 4.422512e-01 2.180336e-01 2.718517e-01 2.722941e-01
8.800000e+10 4.690162e-01 2.579400e-01 2.552456e-01 2.971411e-01
8.900000e+10 5.027017e-01 2.990851e-01 2.341974e-01 3.292548e-01
9.000000e+10 5.396893e-01 3.384957e-01 2.054668e-01 3.666996e-01
9.100000e+10 5.743866e-01 3.707849e-01 1.664180e-01 4.058861e-01
9.200000e+10 6.000858e-01 3.890408e-01 1.165168e-01 4.417851e-01
9.300000e+10 6.115372e-01 3.873698e-01 5.856811e-02 4.695660e-01
9.400000e+10 6.079652e-01 3.638190e-01 -1.705027e-03 4.870878e-01
9.500000e+10 5.939802e-01 3.211197e-01 -5.794302e-02 4.963237e-01
9.600000e+10 5.775624e-01 2.644230e-01 -1.054503e-01 5.025326e-01
9.700000e+10 5.671410e-01 1.980941e-01 -1.416375e-01 5.121977e-01
9.800000e+10 5.698636e-01 1.238858e-01 -1.645570e-01 5.313359e-01
9.900000e+10 5.909733e-01 4.121451e-02 -1.705417e-01 5.643282e-01
1.000000e+11 6.323994e-01 -5.020654e-02 -1.520161e-01 6.118002e-01
1.010000e+11 6.881047e-01 -1.443421e-01 -9.788612e-02 6.656363e-01
1.020000e+11 7.372440e-01 -2.210174e-01 -2.298470e-03 7.033311e-01
1.030000e+11 7.488154e-01 -2.500062e-01 1.178469e-01 6.959408e-01
1.040000e+11 7.098532e-01 -2.189411e-01 2.232278e-01 6.372799e-01
1.050000e+11 6.412121e-01 -1.489724e-01 2.862711e-01 5.540839e-01
1.060000e+11 5.726450e-01 -6.980237e-02 3.093834e-01 4.767933e-01
1.070000e+11 5.202961e-01 2.814995e-03 3.081253e-01 4.192361e-01
1.080000e+11 4.877498e-01 6.596307e-02 2.951905e-01 3.826372e-01
1.090000e+11 4.734140e-01 1.220177e-01 2.771561e-01 3.638915e-01
1.100000e+11 4.746050e-01 1.742137e-01 2.561991e-01 3.595296e-01
1.110000e+11 4.886253e-01 2.248962e-01 2.319170e-01 3.665937e-01
1.120000e+11 5.124488e-01 2.747287e-01 2.024731e-01 3.822728e-01
1.130000e+11 5.419124e-01 3.220803e-01 1.654897e-01 4.031706e-01
1.140000e+11 5.710971e-01 3.626911e-01 1.191825e-01 4.247383e-01
1.150000e+11 5.927876e-01 3.903590e-01 6.381137e-02 4.415259e-01
1.160000e+11 6.006701e-01 3.992833e-01 2.689432e-03 4.487429e-01
1.170000e+11 5.923760e-01 3.871836e-01 -5.848088e-02 4.444976e-01
1.180000e+11 5.708702e-01 3.567010e-01 -1.140358e-01 4.308748e-01
1.190000e+11 5.428071e-01 3.137063e-01 -1.607168e-01 4.127929e-01
1.200000e+11 5.154867e-01 2.641429e-01 -1.982293e-01 3.958033e-01
1.210000e+11 4.948438e-01 2.118237e-01 -2.281763e-01 3.846253e-01
1.220000e+11 4.851521e-01 1.578692e-01 -2.525689e-01 3.829606e-01
1.230000e+11 4.896903e-01 1.011032e-01 -2.725766e-01 3.940517e-01
1.240000e+11 5.114143e-01 3.879139e-02 -2.873622e-01 4.212634e-01
1.250000e+11 5.527414e-01 -3.208116e-02 -2.925181e-01 4.678963e-01
1.260000e+11 6.130717e-01 -1.116987e-01 -2.781566e-01 5.347983e-01
1.270000e+11 6.825510e-01 -1.908520e-01 -2.294030e-01 6.138613e-01
1.280000e+11 7.360920e-01 -2.448123e-01 -1.368016e-01 6.805760e-01
1.290000e+11 7.447251e-01 -2.446260e-01 -1.628854e-02 7.032128e-01
1.300000e+11 7.059297e-01 -1.874442e-01 9.278881e-02 6.742342e-01
1.310000e+11 6.470050e-01 -9.994236e-02 1.628939e-01 6.181364e-01
1.320000e+11 5.952347e-01 -8.623180e-03 1.938098e-01 5.627324e-01
1.330000e+11 5.625228e-01 7.524449e-02 1.970884e-01 5.214655e-01
1.340000e+11 5.499039e-01 1.505166e-01 1.824689e-01 4.964314e-01
1.350000e+11 5.539055e-01 2.187904e-01 1.549534e-01 4.846973e-01
1.360000e+11 5.691069e-01 2.804509e-01 1.163231e-01 4.813512e-01
1.370000e+11 5.885082e-01 3.331551e-01 6.742495e-02 4.804201e-01
1.380000e+11 6.039213e-01 3.720456e-01 1.029022e-02 4.756019e-01
1.390000e+11 6.077956e-01 3.918270e-01 -5.064078e-02 4.618686e-01
1.400000e+11 5.961739e-01 3.899977e-01 -1.091683e-01 4.375013e-01
1.410000e+11 5.704960e-01 3.688563e-01 -1.597417e-01 4.048374e-01
1.420000e+11 5.364073e-01 3.344353e-01 -1.997062e-01 3.687862e-01
1.430000e+11 5.006903e-01 2.934891e-01 -2.296507e-01 3.343882e-01
1.440000e+11 4.688533e-01 2.510787e-01 -2.521684e-01 3.052768e-01
1.450000e+11 4.444486e-01 2.098241e-01 -2.704093e-01 2.835263e-01
1.460000e+11 4.295599e-01 1.702572e-01 -2.872101e-01 2.702676e-01
1.470000e+11 4.256220e-01 1.314265e-01 -3.047724e-01 2.664488e-01
1.480000e+11 4.341345e-01 9.132975e-02 -3.245431e-01 2.735020e-01
1.490000e+11 4.571296e-01 4.715388e-02 -3.469332e-01 2.939070e-01
1.500000e+11 4.972046e-01 -4.385248e-03 -3.704691e-01 3.315807e-01
1.510000e+11 5.564544e-01 -6.580188e-02 -3.899078e-01 3.915144e-01
1.520000e+11 6.327810e-01 -1.350807e-01 -3.934429e-01 4.768309e-01
1.530000e+11 7.126727e-01 -1.984449e-01 -3.626300e-01 5.805355e-01
1.540000e+11 7.679541e-01 -2.271448e-01 -2.846982e-01 6.760959e-01
1.550000e+11 7.745732e-01 -1.963604e-01 -1.753948e-01 7.284524e-01
1.560000e+11 7.405167e-01 -1.133803e-01 -7.502513e-02 7.279293e-01
1.570000e+11 6.959425e-01 -8.266101e-03 -1.212968e-02 6.957877e-01
1.580000e+11 6.629738e-01 9.541933e-02 1.013454e-02 6.559929e-01
1.590000e+11 6.472056e-01 1.877575e-01 3.390615e-04 6.193723e-01
1.600000e+11 6.439034e-01 2.649924e-01 -3.206593e-02 5.859713e-01
1.610000e+11 6.439676e-01 3.236925e-01 -7.865399e-02 5.511179e-01
1.620000e+11 6.379505e-01 3.599675e-01 -1.309626e-01 5.101500e-01
1.630000e+11 6.196614e-01 3.718915e-01 -1.806126e-01 4.615800e-01
1.640000e+11 5.884936e-01 3.618511e-01 -2.212329e-01 4.079761e-01
1.650000e+11 5.487430e-01 3.361440e-01 -2.502545e-01 3.542581e-01
1.660000e+11 5.066007e-01 3.022294e-01 -2.687787e-01 3.050568e-01
1.670000e+11 4.673809e-01 2.661364e-01 -2.799270e-01 2.631676e-01
1.680000e+11 4.344441e-01 2.314910e-01 -2.871803e-01 2.295236e-01
1.690000e+11 4.094538e-01 1.998120e-01 -2.935106e-01 2.039097e-01
1.700000e+11 3.930915e-01 1.712046e-01 -3.012070e-01 1.856994e-01
1.710000e+11 3.857120e-01 1.449319e-01 -3.120337e-01 1.743658e-01
1.720000e+11 3.878151e-01 1.197292e-01 -3.274587e-01 1.698125e-01
1.730000e+11 4.003767e-01 9.389804e-02 -3.488218e-01 1.726500e-01
1.740000e+11 4.250933e-01 6.526407e-02 -3.773450e-01 1.845418e-01
1.750000e+11 4.645004e-01 3.114296e-02 -4.138053e-01 2.087007e-01
1.760000e+11 5.216504e-01 -1.131748e-02 -4.574560e-01 2.504497e-01
1.770000e+11 5.984060e-01 -6.345878e-02 -5.034984e-01 3.170995e-01
1.780000e+11 6.906108e-01 -1.203787e-01 -5.390116e-01 4.146308e-01
1.790000e+11 7.804624e-01 -1.635329e-01 -5.419465e-01 5.372825e-01
1.800000e+11 8.376540e-01 -1.623455e-01 -4.956178e-01 6.554930e-01
1.810000e+11 8.444767e-01 -1.001621e-01 -4.146969e-01 7.287900e-01
1.820000e+11 8.160988e-01 4.187266e-03 -3.389926e-01 7.423501e-01
1.830000e+11 7.791620e-01 1.164216e-01 -2.956095e-01 7.114453e-01
1.840000e+11 7.459893e-01 2.123180e-01 -2.858177e-01 6.555374e-01
1.850000e+11 7.143715e-01 2.804870e-01 -2.972529e-01 5.859133e-01
1.860000e+11 6.779304e-01 3.177166e-01 -3.155885e-01 5.089692e-01
1.870000e+11 6.336043e-01 3.268479e-01 -3.303649e-01 4.306784e-01
1.880000e+11 5.834208e-01 3.151359e-01 -3.369943e-01 3.570770e-01
1.890000e+11 5.322207e-01 2.913006e-01 -3.358197e-01 2.926225e-01
1.900000e+11 4.846873e-01 2.627060e-01 -3.296645e-01 2.392252e-01
1.910000e+11 4.438491e-01 2.341497e-01 -3.217181e-01 1.966555e-01
1.920000e+11 4.110596e-01 2.080809e-01 -3.145315e-01 1.635307e-01
1.930000e+11 3.865971e-01 1.853567e-01 -3.098661e-01 1.381419e-01
1.940000e+11 3.702709e-01 1.659339e-01 -3.089096e-01 1.189173e-01
1.950000e+11 3.618456e-01 1.493140e-01 -3.125603e-01 1.046119e-01
1.960000e+11 3.613016e-01 1.347655e-01 -3.216716e-01 9.436387e-02
1.970000e+11 3.690043e-01 1.213896e-01 -3.372447e-01 8.771973e-02
1.980000e+11 3.858447e-01 1.080807e-01 -3.605836e-01 8.470031e-02
1.990000e+11 4.133831e-01 9.341293e-02 -3.934059e-01 8.597315e-02
2.000000e+11 4.539802e-01 7.549054e-02 -4.378468e-01 9.321719e-02
2.010000e+11 5.107694e-01 5.189579e-02 -4.961251e-01 1.097819e-01
2.020000e+11 5.869735e-01 2.017519e-02 -5.692778e-01 1.416106e-01
2.030000e+11 6.833155e-01 -1.998336e-02 -6.538173e-01 1.975948e-01
2.040000e+11 7.917564e-01 -6.125666e-02 -7.357214e-01 2.860766e-01
2.050000e+11 8.880217e-01 -8.242348e-02 -7.874598e-01 4.021145e-01
2.060000e+11 9.385641e-01 -5.674065e-02 -7.840788e-01 5.127412e-01
2.070000e+11 9.299400e-01 1.805683e-02 -7.324007e-01 5.727578e-01
2.080000e+11 8.796357e-01 1.108410e-01 -6.644987e-01 5.656100e-01
2.090000e+11 8.107494e-01 1.876612e-01 -6.025664e-01 5.089318e-01
2.100000e+11 7.359113e-01 2.336707e-01 -5.499880e-01 4.295075e-01
2.110000e+11 6.611078e-01 2.506496e-01 -5.033986e-01 3.476035e-01
2.120000e+11 5.906710e-01 2.475156e-01 -4.608073e-01 2.743809e-01
2.130000e+11 5.279866e-01 2.335383e-01 -4.224368e-01 2.139554e-01
2.140000e+11 4.749670e-01 2.154839e-01 -3.892527e-01 1.662609e-01
2.150000e+11 4.320956e-01 1.973453e-01 -3.619697e-01 1.293808e-01
2.160000e+11 3.989420e-01 1.810842e-01 -3.408394e-01 1.009539e-01
2.170000e+11 3.747008e-01 1.674517e-01 -3.258045e-01 7.881653e-02
2.180000e+11 3.585615e-01 1.565726e-01 -3.167122e-01 6.119453e-02
2.190000e+11 3.499131e-01 1.482860e-01 -3.134810e-01 4.669160e-02
2.200000e+11 3.484475e-01 1.423146e-01 -3.162151e-01 3.420843e-02
2.210000e+11 3.542174e-01 1.383266e-01 -3.252898e-01 2.285305e-02
2.220000e+11 3.676846e-01 1.359280e-01 -3.414304e-01 1.186658e-02
2.230000e+11 3.897779e-01 1.345964e-01 -3.658009e-01 5.793019e-04
2.240000e+11 4.219611e-01 1.335460e-01 -4.001032e-01 -1.157722e-02
2.250000e+11 4.662870e-01 1.315067e-01 -4.466627e-01 -2.493992e-02
2.260000e+11 5.253428e-01 1.264167e-01 -5.083946e-01 -3.922768e-02
2.270000e+11 6.018181e-01 1.151645e-01 -5.883458e-01 -5.264383e-02
2.280000e+11 6.970076e-01 9.395721e-02 -6.880170e-01 -6.020257e-02
2.290000e+11 8.068631e-01 6.084554e-02 -8.028929e-01 -5.185374e-02
2.300000e+11 9.146911e-01 2.213124e-02 -9.143104e-01 -1.437103e-02
2.310000e+11 9.869322e-01 -2.113127e-03 -9.853785e-01 5.531721e-02
2.320000e+11 9.905585e-01 9.255188e-03 -9.815731e-01 1.327962e-01
2.330000e+11 9.259516e-01 5.169579e-02 -9.066263e-01 1.809494e-01
2.340000e+11 8.250421e-01 9.934980e-02 -7.973330e-01 1.873077e-01
2.350000e+11 7.191789e-01 1.335740e-01 -6.869620e-01 1.657094e-01
2.360000e+11 6.245468e-01 1.513243e-01 -5.909756e-01 1.338190e-01
2.370000e+11 5.461518e-01 1.571236e-01 -5.129897e-01 1.021542e-01
2.380000e+11 4.838837e-01 1.562811e-01 -4.518119e-01 7.473723e-02
2.390000e+11 4.358837e-01 1.526337e-01 -4.049393e-01 5.216936e-02
2.400000e+11 3.999999e-01 1.484928e-01 -3.698824e-01 3.371724e-02
2.410000e+11 3.743429e-01 1.451294e-01 -3.445799e-01 1.829719e-02
2.420000e+11 3.574576e-01 1.432158e-01 -3.274779e-01 4.837917e-03
2.430000e+11 3.483468e-01 1.431156e-01 -3.174982e-01 -7.636270e-03
2.440000e+11 3.464462e-01 1.450509e-01 -3.139807e-01 -2.003336e-02
2.450000e+11 3.515932e-01 1.491857e-01 -3.166306e-01 -3.326316e-02
2.460000e+11 3.640028e-01 1.556495e-01 -3.254782e-01 -4.832448e-02
2.470000e+11 3.842481e-01 1.645047e-01 -3.408454e-01 -6.640209e-02
2.480000e+11 4.132254e-01 1.756381e-01 -3.633069e-01 -8.896384e-02
2.490000e+11 4.520697e-01 1.885299e-01 -3.936247e-01 -1.178264e-01
2.500000e+11 5.019594e-01 2.018330e-01 -4.326317e-01 -1.551015e-01
2.510000e+11 5.637371e-01 2.127078e-01 -4.810602e-01 -2.028201e-01
2.520000e+11 6.373055e-01 2.160230e-01 -5.393721e-01 -2.618591e-01
2.530000e+11 7.208426e-01 2.040382e-01 -6.077028e-01 -3.296663e-01
2.540000e+11 8.097688e-01 1.681759e-01 -6.856594e-01 -3.966278e-01
2.550000e+11 8.945474e-01 1.052937e-01 -7.701293e-01 -4.427518e-01
2.560000e+11 9.563267e-01 2.824203e-02 -8.480478e-01 -4.411101e-01
2.570000e+11 9.675394e-01 -3.117750e-02 -8.902294e-01 -3.776931e-01
2.580000e+11 9.129861e-01 -4.584432e-02 -8.692499e-01 -2.754024e-01
2.590000e+11 8.118694e-01 -2.148400e-02 -7.916920e-01 -1.785892e-01
2.600000e+11 6.999762e-01 1.647594e-02 -6.907320e-01 -1.121807e-01
2.610000e+11 6.008986e-01 5.040960e-02 -5.940560e-01 -7.506941e-02
2.620000e+11 5.219796e-01 7.545116e-02 -5.133081e-01 -5.731183e-02
2.630000e+11 4.623404e-01 9.289069e-02 -4.500787e-01 -5.058776e-02
2.640000e+11 4.188051e-01 1.053745e-01 -4.022406e-01 -4.996411e-02
2.650000e+11 3.882814e-01 1.152120e-01 -3.669961e-01 -5.293867e-02
2.660000e+11 3.683949e-01 1.241011e-01 -3.419081e-01 -5.841692e-02
2.670000e+11 3.575257e-01 1.332579e-01 -3.251138e-01 -6.609036e-02
2.680000e+11 3.546991e-01 1.435917e-01 -3.152741e-01 -7.612598e-02
2.690000e+11 3.594656e-01 1.558339e-01 -3.114537e-01 -8.903838e-02
2.700000e+11 3.717953e-01 1.706016e-01 -3.129894e-01 -1.056621e-01
2.710000e+11 3.919712e-01 1.883844e-01 -3.193422e-01 -1.271742e-01
2.720000e+11 4.204364e-01 2.094226e-01 -3.299168e-01 -1.551254e-01
2.730000e+11 4.575354e-01 2.334181e-01 -3.438248e-01 -1.914135e-01
2.740000e+11 5.030818e-01 2.590093e-01 -3.596094e-01 -2.380895e-01
2.750000e+11 5.557620e-01 2.830057e-01 -3.750624e-01 -2.968288e-01
2.760000e+11 6.126324e-01 2.996384e-01 -3.874888e-01 -3.679507e-01
2.770000e+11 6.693846e-01 3.005388e-01 -3.949618e-01 -4.491741e-01
2.780000e+11 7.220976e-01 2.763948e-01 -3.987578e-01 -5.348113e-01
2.790000e+11 7.698350e-01 2.204409e-01 -4.057944e-01 -6.159405e-01
2.800000e+11 8.148639e-01 1.327048e-01 -4.282350e-01 -6.804465e-01
2.810000e+11 8.566310e-01 2.463774e-02 -4.768832e-01 -7.111906e-01
2.820000e+11 8.814955e-01 -7.648013e-02 -5.470559e-01 -6.869607e-01
2.830000e+11 8.644146e-01 -1.344578e-01 -6.084372e-01 -5.991142e-01
2.840000e+11 7.960063e-01 -1.331417e-01 -6.259851e-01 -4.733307e-01
2.850000e+11 6.987093e-01 -9.194045e-02 -5.958455e-01 -3.531427e-01
2.860000e+11 6.026239e-01 -4.025097e-02 -5.406354e-01 -2.631518e-01
2.870000e+11 5.235405e-01 5.720597e-03 -4.819798e-01 -2.043461e-01
2.880000e+11 4.643510e-01 4.231182e-02 -4.305065e-01 -1.688067e-01
2.890000e+11 4.227221e-01 7.114195e-02 -3.891728e-01 -1.489206e-01
2.900000e+11 3.954630e-01 9.493916e-02 -3.576260e-01 -1.395751e-01
2.910000e+11 3.799847e-01 1.161607e-01 -3.345158e-01 -1.378195e-01
2.920000e+11 3.745486e-01 1.367621e-01 -3.183824e-01 -1.421811e-01
2.930000e+11 3.781551e-01 1.582786e-01 -3.078870e-01 -1.521669e-01
2.940000e+11 3.903495e-01 1.819171e-01 -3.017726e-01 -1.679650e-01
2.950000e+11 4.109905e-01 2.085512e-01 -2.986994e-01 -1.902585e-01
2.960000e+11 4.399344e-01 2.385518e-01 -2.970081e-01 -2.200490e-01
2.970000e+11 4.765616e-01 2.713886e-01 -2.944543e-01 -2.583715e-01
2.980000e+11 5.191190e-01 3.049860e-01 -2.880432e-01 -3.057764e-01
2.990000e+11 5.640677e-01 3.350231e-01 -2.742547e-01 -3.615469e-01
3.000000e+11 6.060482e-01 3.547859e-01 -2.500606e-01 -4.229552e-01
3.010000e+11 6.393439e-01 3.564386e-01 -2.147978e-01 -4.853597e-01
